x,dens,vel,pres
0.016045361922023514,0.5778131427333116,-1.3791813916691402,0.45655840996598634
0.02590898467855248,0.5898033748793589,-1.3457263742643757,0.4667205516981419
0.035772607435081455,0.6043489157740672,-1.3023580825704995,0.47936886118975613
0.04563623019161042,0.622680903970884,-1.239521212608839,0.4970027809837675
0.06536347570466836,0.6489472903304583,-1.135756916522722,0.5241535805000211
0.07522709846119732,0.6856929333142198,-0.9838071855845365,0.5632386286496313
0.08509072121772629,0.7312215854158577,-0.8025802755208167,0.6136885299863055
0.09495434397425526,0.7807710980388644,-0.6205579803078676,0.6723026291650017
0.10481796673078422,0.8294340370458092,-0.4580427874686844,0.7342605650375578
0.11468158948731319,0.8733339044650448,-0.3240626611160723,0.794242988422567
0.12454521224384216,0.9101377696897512,-0.21985531916009413,0.847875458780148
0.13440883500037112,0.9391712657040094,-0.1428804698594951,0.8928870427227638
0.14427245775690012,0.9683838679944222,-0.0709526523357181,0.9415432904658679
0.15413608051342909,0.9860291788090315,-0.030219291978950073,0.9728402762929544
0.16399970326995805,0.9923242683419922,-0.01654540827389178,0.9846285480511514
0.17386332602648702,0.9960660759659643,-0.008793429115011074,0.9918376042266451
0.183726948783016,0.9988067935600231,-0.003792810080346063,0.9972422657426511
0.19359057153954495,1.0001575345678506,-0.0024462847751792033,0.999912675840577
0.20345419429607392,1.000750077276281,-0.003118557622996978,1.001034373175314
0.2133178170526029,1.001420327701854,-0.00493278766433004,1.0022484070383852
0.22318143980913185,1.0031168774927577,-0.011045562588054333,1.0052446458615698
0.23304506256566082,1.0061485337070522,-0.022703831153172094,1.0105865641852043
0.2429086853221898,1.009623977998513,-0.03638857573902,1.0167454088619963
0.25277230807871875,1.0183084616178082,-0.07127118779885991,1.032349802532538
0.2626359308352477,1.0315319917327572,-0.12538708405594812,1.056567519856987
0.27249955359177663,1.0437844384449364,-0.17647278646924863,1.0795406611614946
0.28236317634830566,1.0584481376644228,-0.2385886858003369,1.1075810019422492
0.2922267991048346,1.083479831484936,-0.3476979061667102,1.156337551505328
0.3020904218613636,1.1087467178036368,-0.4631300939556215,1.205488060214778
0.3119540446178925,1.1295653406959267,-0.5714295062694142,1.2434592251086016
0.3218176673744215,1.143579428036228,-0.6650160950070916,1.2645060924436389
0.3316812901309505,1.146621698057091,-0.7348607579802913,1.2595665274653893
0.34154491288747946,1.140052467382616,-0.7846898922328727,1.2338581486849451
0.3514085356440084,1.1292976481891939,-0.8049863964208966,1.2044840396564205
0.3612721584005374,1.1043695900838653,-0.8175923487300453,1.146658768854244
0.37113578115706636,1.0718072993977499,-0.8135174206948903,1.0791799118636456
0.3809994039135953,1.031174175503152,-0.7912021451600159,1.003927778039442
0.3908630266701243,0.9840404990261461,-0.7520915711936429,0.925188297802169
0.40072664942665326,0.9488316849602701,-0.7140431925119551,0.8731690677035485
0.4105902721831822,0.912439364473114,-0.6606311409220804,0.8241239594666684
0.4204538949397112,0.8755058238330209,-0.5968909764124379,0.7787411504697719
0.43031751769624016,0.8427889364114033,-0.516768773411444,0.7419178204510519
0.4401811404527691,0.8213654913752738,-0.40967937999405935,0.7175691160303678
0.4500447632092981,0.8143184279550535,-0.3121329924798764,0.7025376629509938
0.45990838596582706,0.8394330161665086,-0.19475386614848844,0.7047780816928013
0.469772008722356,0.8714104776465171,-0.09008526414719571,0.7126143091865543
0.479635631478885,0.8521997171903278,-0.012860144172772403,0.710658664028674
0.48949925423541396,0.7470210207015251,0.008317060517718806,0.6899914347216214
0.509226499748472,0.657270231593083,0.02426525766025057,0.6689032454403815
0.5190901225050009,0.567573711584301,0.019414648898798893,0.6424122382840115
0.5289537452615298,0.5204944525357413,0.011108344983722315,0.5919790969577035
0.5486809907745878,0.5082879114856093,0.009230342771189195,0.5460815368261828
0.5585446135311167,0.507865497840216,0.01043831363265537,0.523709333603815
0.5782718590441747,0.5061876031744601,0.008180219674368282,0.5141896358539311
0.5979991045572326,0.5033666290178429,0.004662797134544435,0.5079504625205179
0.6078627273137616,0.5015504930391316,0.002395703817277919,0.5038262216508096
0.6275899728268195,0.5007159659194962,0.0011840758126454032,0.5016919162469861
0.6374535955833486,0.5003682306755719,0.0006086868585424209,0.5007725455409661
0.6571808410964065,0.5003831988351615,-0.0008360715054108469,0.5006642327631362
0.6670444638529355,0.5009402107201992,-0.005647910473171589,0.5015660686272296
0.6867717093659933,0.5030019500241159,-0.021710513459954315,0.505132932933293
0.7064989548790513,0.5095649357219622,-0.07253354519328722,0.51686199736616
0.7163625776355803,0.5269498506343191,-0.2083134283756243,0.5503330370577281
0.7360898231486381,0.5618222638288732,-0.4739617260293692,0.6286120668313783
0.7459534459051671,0.6111490829417069,-0.8126064030506914,0.7608862812497894
0.7558170686616962,0.6612459987637015,-1.1139479315953973,0.9087073643140897
0.7656806914182251,0.7009957102482183,-1.327539067112147,1.0214439644962767
0.785407936931283,0.7270670141543153,-1.4592969742108637,1.0782907707274523
0.7952715596878119,0.7406077475117341,-1.535921464269934,1.0857212766895754
0.805135182444341,0.7439314248465946,-1.5754733800766691,1.0558018827421058
0.81499880520087,0.7391802187337289,-1.5885468942892178,1.0008031542745728
0.824862427957399,0.728279283719011,-1.5822694893317106,0.931250856527153
0.8347260507139278,0.7129057219188394,-1.5618536373153256,0.8555489929874437
0.8445896734704568,0.6947028959549041,-1.532894687845878,0.7807470738988548
0.8544532962269858,0.6751578128493009,-1.5012651049022978,0.7116577203098741
0.8643169189835148,0.6550581717251521,-1.4693927943573655,0.6500743919711178
0.8840441644965726,0.6349286836788565,-1.4391658144174653,0.5976697426788752
0.8939077872531016,0.6157103700946646,-1.4128897314595674,0.5555261132876739
0.9037714100096307,0.6006489815716888,-1.393633270347685,0.5247333761265839
0.9136350327661596,0.5944889400498552,-1.3826882235206743,0.5016301786395686
0.9333622782792175,0.5974376368045589,-1.3757512618517433,0.4830216192048169
0.9432259010357466,0.603590475021438,-1.3683189916909588,0.47114545376164113
0.9530895237922756,0.6016728699934777,-1.3625842390807734,0.462892560312949
0.9728167693053335,0.5894443793363874,-1.3744373937512415,0.45946413195942915
0.9826803920618624,0.57614235357511,-1.3925119074006067,0.4523486085088425
0.9925440148183915,0.5714692574277134,-1.397224688642255,0.4521184991022652
